x (m)		I/Io		mu_T
0		0.99678		0.767297
0.002		0.99356		0.767297
0.004		0.99021		0.78619
0.006		0.98739		0.652324
0.008		0.9842		1.384
0.01		0.98112		3.32504
0.012		0.97831		0.507663
0.014		0.97533		2.39473
0.016		0.97202		2.58447
0.018		0.9691		1.06795
0.02		0.96621		0.631003
0.022		0.96331		2.58447
0.024		0.96041		0.517379
0.026		0.95743		3.32504
0.028		0.95452		0.517379
0.03		0.9517		1.53405
0.032		0.94866		1.31868
0.034		0.9457		1.53405
0.036		0.94312		2.58447
0.038		0.94035		0.78619
0.04		0.93764		2.22659
0.042		0.93493		1.45525
0.044		0.93228		0.507663
0.046		0.92948		1.82446
0.048		0.92652		2.58447
0.05		0.92378		0.827483
0.052		0.92067		3.04436
0.054		0.91781		1.06795
0.056		0.91488		0.767297
0.058		0.91215		0.486882
0.06		0.90955		0.550845
0.062		0.90694		1.71758
0.064		0.90435		1.02936
0.066		0.90176		0.930041
0.068		0.89919		3.04436
0.07		0.89664		0.578374
0.072		0.89409		4.01866
0.074		0.89144		1.62123
0.076		0.88899		1.1554
0.078		0.88642		1.10979
0.08		0.88396		0.827483
0.082		0.88136		2.79876
0.084		0.87894		2.39473
0.086		0.87653		2.58447
0.088		0.87391		0.901433
0.09		0.87154		0.586201
0.092		0.8688		0.446128
0.094		0.86637		4.01866
0.096		0.86421		1.384
0.098		0.8618		0.78619
0.1		0.85945		0.544638
0.102		0.85723		1.45525
0.104		0.85501		0.827483
0.106		0.85296		1.62123
0.108		0.85051		0.494708
0.11		0.8482		1.384
0.112		0.8461		2.39473
0.114		0.84396		0.611571
0.116		0.84179		1.82446
0.118		0.83937		0.594298
0.12		0.83685		0.703063
0.122		0.83455		0.652324
0.124		0.83232		1.53405
0.126		0.82981		0.663929
0.128		0.82727		0.652324
0.13		0.82515		0.676344
0.132		0.82287		3.32504
0.134		0.82045		2.58447
0.136		0.81828		0.557053
0.138		0.81606		0.767297
0.14		0.81404		0.557053
0.142		0.81167		0.749754
0.144		0.80956		2.07707
0.146		0.80742		0.483103
0.148		0.80538		0.641259
0.15		0.8033		0.78619
0.152		0.80128		0.631003
0.154		0.79917		0.827483
0.156		0.79691		1.82446
0.158		0.79456		2.79876
0.16		0.79222		1.31868
0.162		0.79017		0.78619
0.164		0.78798		0.850423
0.166		0.78614		0.767297
0.168		0.78426		1.62123
0.17		0.78226		0.717638
0.172		0.78002		1.53405
0.174		0.77786		0.611571
0.176		0.77584		0.479595
0.178		0.77384		1.25958
0.18		0.77188		2.07707
0.182		0.77021		1.384
0.184		0.76819		2.22659
0.186		0.76624		2.22659
0.188		0.764		1.94375
0.19		0.76218		2.22659
0.192		0.76002		1.1554
0.194		0.75802		0.486882
0.196		0.75579		0.594298
0.198		0.75379		0.78619
0.2		0.75188		1.71758
0.202		0.75006		2.07707
0.204		0.74828		1.53405
0.206		0.74633		1.71758
0.208		0.74452		0.767297
0.21		0.74265		2.58447
0.212		0.74081		0.960539
0.214		0.73902		2.22659
0.216		0.73697		1.25958
0.218		0.73507		1.45525
0.22		0.73313		0.901433
0.222		0.73141		2.22659
0.224		0.72969		0.602664
0.226		0.72802		0.901433
0.228		0.72622		0.767297
0.23		0.72444		0.78619
0.232		0.72261		2.22659
0.234		0.72075		0.806161
0.236		0.71907		0.676344
0.238		0.71714		0.459893
0.24		0.7153		2.07707
0.242		0.71361		1.82446
0.244		0.71184		2.07707
0.246		0.71023		0.652324
0.248		0.70862		0.850423
0.25		0.70677		1.71758
0.252		0.70483		2.58447
0.254		0.70313		0.827483
0.256		0.70135		0.874983
0.258		0.69958		1.02936
0.26		0.69793		1.71758
0.262		0.69634		5.54624
0.264		0.69457		1.02936
0.266		0.6931		0.652324
0.268		0.69137		0.749754
0.27		0.6895		0.874983
0.272		0.68782		2.58447
0.274		0.68603		0.676344
0.276		0.68435		2.39473
0.278		0.68267		0.544638
0.28		0.68086		3.64621
0.282		0.67933		2.22659
0.284		0.67742		0.557053
0.286		0.67562		7.07921
0.288		0.67381		1.71758
0.29		0.67222		2.79876
0.292		0.67053		3.32504
0.294		0.66902		0.641259
0.296		0.66763		1.10979
0.298		0.66609		1.1554
0.3		0.66468		2.39473
0.302		0.663		0.78619
0.304		0.6616		0.527635
0.306		0.66011		6.24525
0.308		0.65864		0.78619
0.31		0.65709		2.79876
0.312		0.65572		9.28961
0.314		0.6541		1.06795
0.316		0.65245		1.06795
0.318		0.65075		1.25958
0.32		0.64906		1.10979
0.322		0.64746		1.53405
0.324		0.64609		0.652324
0.326		0.64444		1.71758
0.328		0.6429		0.456924
0.33		0.6416		0.676344
0.332		0.63994		0.767297
0.334		0.63856		0.749754
0.336		0.63703		0.621017
0.338		0.63563		0.689299
0.34		0.63432		1.53405
0.342		0.63274		1.45525
0.344		0.6314		2.58447
0.346		0.62987		0.522237
0.348		0.62847		1.25958
0.35		0.62711		0.652324
0.352		0.62557		1.25958
0.354		0.62409		1.31868
0.356		0.62267		1.10979
0.358		0.62126		0.806161
0.36		0.61993		4.01866
0.362		0.61844		0.960539
0.364		0.61694		1.82446
0.366		0.61577		0.522237
0.368		0.61432		0.767297
0.37		0.61303		1.20533
0.372		0.61167		0.874983
0.374		0.61023		1.45525
0.376		0.60865		0.517379
0.378		0.6071		0.850423
0.38		0.60579		1.62123
0.382		0.60455		2.39473
0.384		0.6033		1.10979
0.386		0.60191		0.993465
0.388		0.6004		0.676344
0.39		0.59911		0.733291
0.392		0.59774		0.571087
0.394		0.59655		0.901433
0.396		0.59524		0.544638
0.398		0.59406		0.767297
0.4		0.59275		0.717638
0.402		0.59166		0.611571
0.404		0.59046		0.499027
0.406		0.58927		1.82446
0.408		0.58797		1.82446
0.41		0.58672		3.04436
0.412		0.58548		0.850423
0.414		0.58421		1.20533
0.416		0.5831		1.62123
0.418		0.58194		0.78619
0.42		0.5805		1.02936
0.422		0.57924		2.39473
0.424		0.578		0.578374
0.426		0.57653		0.767297
0.428		0.57529		0.527635
0.43		0.57394		1.31868
0.432		0.57255		0.507663
0.434		0.57128		1.25958
0.436		0.57009		2.79876
0.438		0.56884		0.874983
0.44		0.56765		1.1554
0.442		0.56648		2.07707
0.444		0.56521		0.602664
0.446		0.56409		0.594298
0.448		0.56309		1.45525
0.45		0.56204		2.22659
0.452		0.56073		0.767297
0.454		0.55949		0.652324
0.456		0.5582		1.62123
0.458		0.55728		2.22659
0.46		0.55619		0.960539
0.462		0.55496		0.479595
0.464		0.55387		0.676344
0.466		0.55289		1.94375
0.468		0.55169		4.01866
0.47		0.55042		0.631003
0.472		0.54943		0.806161
0.474		0.54819		0.483103
0.476		0.54684		0.960539
0.478		0.54561		0.993465
0.48		0.54443		1.1554
0.482		0.54336		0.652324
0.484		0.54237		0.527635
0.486		0.54114		2.07707
0.488		0.54002		0.586201
0.49		0.53913		0.993465
0.492		0.53807		0.901433
0.494		0.53704		1.384
0.496		0.53585		1.06795
0.498		0.53481		0.850423
0.5		0.53368		0.594298
0.502		0.53248		1.25958
0.504		0.53142		0.517379
0.506		0.53018		0.993465
0.508		0.52917		0.676344
0.51		0.52787		1.82446
0.512		0.52669		2.58447
0.514		0.52572		1.384
0.516		0.52471		0.631003
0.518		0.52346		1.20533
0.52		0.52226		1.10979
0.522		0.52113		0.767297
0.524		0.52026		0.631003
0.526		0.51894		0.78619
0.528		0.51794		0.901433
0.53		0.51689		6.24525
0.532		0.51603		0.993465
0.534		0.51484		0.676344
0.536		0.51375		0.827483
0.538		0.51266		0.512521
0.54		0.51153		1.82446
0.542		0.51058		0.827483
0.544		0.50947		1.45525
0.546		0.50833		0.503345
0.548		0.50743		1.71758
0.55		0.50658		1.10979
0.552		0.5057		0.850423
0.554		0.50469		1.71758
0.556		0.50359		4.45049
0.558		0.50258		0.594298
0.56		0.5016		2.07707
0.562		0.50074		1.45525
0.564		0.49977		0.602664
0.566		0.49879		0.767297
0.568		0.4976		1.06795
0.57		0.4966		1.31868
0.572		0.49557		6.24525
0.574		0.49454		1.62123
0.576		0.49341		0.717638
0.578		0.49234		2.39473
0.58		0.49126		2.22659
0.582		0.49032		0.456924
0.584		0.48931		4.45049
0.586		0.48825		2.58447
0.588		0.48703		0.641259
0.59		0.48605		1.10979
0.592		0.48479		2.22659
0.594		0.48383		0.443699
0.596		0.48287		0.49066
0.598		0.48181		2.39473
0.6		0.48064		2.07707
0.602		0.47971		0.507663
0.604		0.47866		1.62123
0.606		0.47771		1.31868
0.608		0.47679		2.58447
0.61		0.47549		0.578374
0.612		0.47463		1.71758
0.614		0.47377		0.49066
0.616		0.47284		2.22659
0.618		0.47176		2.07707
0.62		0.47074		0.522237
0.622		0.46979		4.45049
0.624		0.46886		0.550845
0.626		0.46789		0.767297
0.628		0.467		0.767297
0.63		0.46611		1.02936
0.632		0.46523		1.02936
0.634		0.46429		0.78619
0.636		0.46315		1.82446
0.638		0.46226		0.901433
0.64		0.46134		2.79876
0.642		0.46026		2.39473
0.644		0.45935		3.04436
0.646		0.45835		1.53405
0.648		0.45743		1.06795
0.65		0.45653		1.384
0.652		0.45577		1.25958
0.654		0.45485		6.24525
0.656		0.45404		0.652324
0.658		0.45309		4.95518
0.66		0.45218		0.4661
0.662		0.45121		0.901433
0.664		0.45041		0.483103
0.666		0.44947		1.06795
0.668		0.44862		0.733291
0.67		0.44765		2.79876
0.672		0.44683		1.06795
0.674		0.44612		1.31868
0.676		0.44515		1.82446
0.678		0.44417		1.06795
0.68		0.44326		0.652324
0.682		0.44237		2.22659
0.684		0.4417		0.499027
0.686		0.44068		0.806161
0.688		0.43991		0.652324
0.69		0.43899		1.384
0.692		0.43815		0.767297
0.694		0.43726		0.472577
0.696		0.43643		1.10979
0.698		0.43555		0.611571
0.7		0.43475		0.503345
0.702		0.43387		1.31868
0.704		0.43306		0.993465
0.706		0.43214		0.469339
0.708		0.4314		0.806161
0.71		0.43062		0.767297
0.712		0.42984		0.5638
0.714		0.4291		0.557053
0.716		0.4282		4.45049
0.718		0.42727		2.22659
0.72		0.42645		0.507663
0.722		0.42558		1.06795
0.724		0.42477		0.462861
0.726		0.42389		4.95518
0.728		0.4231		2.07707
0.73		0.42222		1.53405
0.732		0.42136		5.54624
0.734		0.42073		0.78619
0.736		0.4201		1.82446
0.738		0.41921		3.04436
0.74		0.41848		2.58447
0.742		0.41752		1.10979
0.744		0.4166		1.82446
0.746		0.41578		0.960539
0.748		0.41494		1.06795
0.75		0.41415		0.499027
0.752		0.41338		1.31868
0.754		0.41265		1.06795
0.756		0.41187		1.45525
0.758		0.41106		1.53405
0.76		0.41015		0.446128
0.762		0.40939		2.39473
0.764		0.40864		0.767297
0.766		0.40795		0.533033
0.768		0.40699		1.71758
0.77		0.40621		1.45525
0.772		0.40531		0.49066
0.774		0.40448		0.578374
0.776		0.40371		0.806161
0.778		0.40306		0.78619
0.78		0.4024		0.827483
0.782		0.40167		0.850423
0.784		0.40089		1.384
0.786		0.40018		1.02936
0.788		0.39942		0.544638
0.79		0.39857		1.62123
0.792		0.39775		1.53405
0.794		0.39703		1.02936
0.796		0.3963		0.749754
0.798		0.39549		0.930041
0.8		0.39466		8.07781
0.802		0.3938		0.717638
0.804		0.39316		0.993465
0.806		0.39241		4.45049
0.808		0.39157		0.874983
0.81		0.39071		0.663929
0.812		0.39004		1.20533
0.814		0.38934		0.578374
0.816		0.3884		0.78619
0.818		0.3878		2.39473
0.82		0.38718		4.95518
0.822		0.38646		1.71758
0.824		0.38576		0.652324
0.826		0.38498		0.652324
0.828		0.38431		0.767297
0.83		0.38366		0.806161
0.832		0.38303		1.53405
0.834		0.38222		0.806161
0.836		0.3814		0.594298
0.838		0.38071		0.689299
0.84		0.38005		4.95518
0.842		0.37954		1.25958
0.844		0.37892		0.652324
0.846		0.37819		1.94375
0.848		0.37756		0.469339
0.85		0.37684		0.494708
0.852		0.37618		1.62123
0.854		0.37549		4.01866
0.856		0.37488		1.62123
0.858		0.37416		0.621017
0.86		0.37349		1.25958
0.862		0.37281		0.550845
0.864		0.37224		2.58447
0.866		0.37158		0.652324
0.868		0.37095		1.71758
0.87		0.37032		1.10979
0.872		0.36962		0.663929
0.874		0.369		0.806161
0.876		0.36837		3.64621
0.878		0.36764		0.930041
0.88		0.36699		1.1554
0.882		0.3663		2.79876
0.884		0.36557		1.94375
0.886		0.36482		1.02936
0.888		0.36426		0.499027
0.89		0.36364		3.32504
0.892		0.36298		1.45525
0.894		0.36244		1.31868
0.896		0.36175		1.02936
0.898		0.36107		1.384
0.9		0.3603		0.503345
0.902		0.35976		0.652324
0.904		0.35916		0.78619
0.906		0.35862		0.993465
0.908		0.35791		0.767297
0.91		0.3573		0.652324
0.912		0.35651		10.7686
0.914		0.35587		4.01866
0.916		0.35535		0.663929
0.918		0.35461		1.82446
0.92		0.35392		0.503345
0.922		0.3534		0.663929
0.924		0.35264		4.95518
0.926		0.35188		3.32504
0.928		0.35107		0.689299
0.93		0.3505		1.45525
0.932		0.34999		1.25958
0.934		0.34933		0.689299
0.936		0.34862		1.45525
0.938		0.34791		1.45525
0.94		0.34732		1.45525
0.942		0.34676		1.02936
0.944		0.3462		0.930041
0.946		0.34553		0.827483
0.948		0.34505		2.39473
0.95		0.34446		0.676344
0.952		0.34377		1.384
0.954		0.34305		0.544638
0.956		0.34239		4.01866
0.958		0.34197		0.652324
0.96		0.34133		1.82446
0.962		0.34065		0.767297
0.964		0.33994		1.53405
0.966		0.33941		0.462861
0.968		0.33893		3.32504
0.97		0.33819		1.02936
0.972		0.33734		3.04436
0.974		0.33688		0.586201
0.976		0.33624		1.02936
0.978		0.33565		0.874983
0.98		0.33507		1.53405
0.982		0.33424		3.32504
0.984		0.33372		0.767297
0.986		0.33308		0.960539
0.988		0.33254		0.499027
0.99		0.33213		0.544638
0.992		0.33157		5.54624
0.994		0.3308		0.652324
0.996		0.3302		0.960539
0.998		0.3295		0.767297
1		0.329		2.22659
1.002		0.32838		2.39473
1.004		0.32782		0.733291
1.006		0.32729		3.64621
1.008		0.3268		0.767297
1.01		0.32623		0.767297
1.012		0.32577		0.663929
1.014		0.32511		0.749754
1.016		0.32462		0.767297
1.018		0.32404		0.652324
1.02		0.32352		0.557053
1.022		0.32291		1.384
1.024		0.3224		1.62123
1.026		0.32187		0.49066
1.028		0.32127		2.22659
1.03		0.32077		1.31868
1.032		0.32013		0.767297
1.034		0.31953		0.611571
1.036		0.31899		0.78619
1.038		0.31843		2.22659
1.04		0.31784		3.04436
1.042		0.31729		0.874983
1.044		0.31669		1.1554
1.046		0.31615		0.483103
1.048		0.31559		0.960539
1.05		0.31502		0.578374
1.052		0.31453		0.652324
1.054		0.314		5.54624
1.056		0.31343		6.24525
1.058		0.3129		0.993465
1.06		0.31246		0.5387
1.062		0.31199		6.24525
1.064		0.31139		0.767297
1.066		0.31077		0.850423
1.068		0.31019		0.621017
1.07		0.30966		0.5638
1.072		0.30911		4.45049
1.074		0.30846		1.62123
1.076		0.30809		6.24525
1.078		0.3076		1.02936
1.08		0.30707		0.451526
1.082		0.30657		0.874983
1.084		0.30605		0.652324
1.086		0.30559		1.53405
1.088		0.30507		0.594298
1.09		0.30454		5.54624
1.092		0.30412		0.850423
1.094		0.30353		0.454225
1.096		0.30305		1.06795
1.098		0.30257		0.571087
1.1		0.30195		0.602664
1.102		0.30149		0.533033
1.104		0.30091		0.749754
1.106		0.30038		0.767297
1.108		0.29993		2.07707
1.11		0.29951		0.486882
1.112		0.29902		1.31868
1.114		0.29852		0.78619
1.116		0.29795		0.5387
1.118		0.29735		0.78619
1.12		0.29683		4.01866
1.122		0.29624		1.25958
1.124		0.2958		0.850423
1.126		0.29534		0.571087
1.128		0.29487		0.78619
1.13		0.29429		1.31868
1.132		0.29368		1.94375
1.134		0.29322		0.850423
1.136		0.29269		2.39473
1.138		0.29216		2.22659
1.14		0.29179		3.04436
1.142		0.29135		0.5638
1.144		0.29083		0.527635
1.146		0.29019		0.767297
1.148		0.28969		0.993465
1.15		0.2892		1.25958
1.152		0.28866		0.767297
1.154		0.288		0.652324
1.156		0.28763		0.652324
1.158		0.28717		1.384
1.16		0.28664		0.494708
1.162		0.28623		6.24525
1.164		0.28575		0.5638
1.166		0.28532		1.1554
1.168		0.28484		1.25958
1.17		0.2843		0.676344
1.172		0.28377		1.45525
1.174		0.28338		2.79876
1.176		0.28275		3.04436
1.178		0.28235		6.24525
1.18		0.28181		0.767297
1.182		0.28146		0.930041
1.184		0.28102		4.01866
1.186		0.28061		0.578374
1.188		0.28007		0.557053
1.19		0.27959		1.10979
1.192		0.2791		0.652324
1.194		0.27859		0.689299
1.196		0.27815		1.06795
1.198		0.27765		2.79876
1.2		0.27718		1.82446
1.202		0.27676		0.960539
1.204		0.27631		0.689299
1.206		0.27578		0.717638
1.208		0.27533		0.494708
1.21		0.27483		0.767297
1.212		0.27431		1.384
1.214		0.2739		3.04436
1.216		0.27348		3.04436
1.218		0.27297		1.82446
1.22		0.27251		1.20533
1.222		0.27206		0.874983
1.224		0.27161		0.767297
1.226		0.27125		3.04436
1.228		0.27081		0.930041
1.23		0.27036		0.544638
1.232		0.26996		1.02936
1.234		0.26949		0.594298
1.236		0.26903		0.557053
1.238		0.26866		0.611571
1.24		0.26821		0.717638
1.242		0.26784		1.31868
1.244		0.26733		1.53405
1.246		0.26691		1.10979
1.248		0.26645		0.512521
1.25		0.26591		0.512521
1.252		0.2655		2.79876
1.254		0.26504		0.767297
1.256		0.26464		1.25958
1.258		0.26421		0.806161
1.26		0.26368		0.4661
1.262		0.26327		1.45525
1.264		0.26278		2.22659
1.266		0.26229		0.767297
1.268		0.26171		0.676344
1.27		0.26135		0.703063
1.272		0.26083		0.456924
1.274		0.26037		1.45525
1.276		0.25989		0.479595
1.278		0.25948		2.79876
1.28		0.25914		3.64621
1.282		0.25878		1.06795
1.284		0.25827		0.827483
1.286		0.25785		2.79876
1.288		0.25745		0.767297
1.29		0.25695		0.930041
1.292		0.25646		2.22659
1.294		0.25608		0.806161
1.296		0.25568		0.733291
1.298		0.2552		0.631003
1.3		0.25482		0.689299
1.302		0.25441		2.58447
1.304		0.25405		6.24525
1.306		0.25355		0.663929
1.308		0.25308		2.07707
1.31		0.25262		0.993465
1.312		0.25221		1.82446
1.314		0.25184		2.07707
1.316		0.25141		9.28961
1.318		0.25101		0.544638
1.32		0.25061		1.384
1.322		0.25024		1.62123
1.324		0.24982		2.79876
1.326		0.24935		0.550845
1.328		0.24893		1.71758
1.33		0.24856		0.717638
1.332		0.24813		0.767297
1.334		0.2477		0.930041
1.336		0.24723		0.749754
1.338		0.24687		0.512521
1.34		0.24651		0.749754
1.342		0.24608		7.07921
1.344		0.24565		1.82446
1.346		0.24526		3.04436
1.348		0.24486		0.503345
1.35		0.24446		2.39473
1.352		0.24417		2.58447
1.354		0.24378		1.45525
1.356		0.2433		1.20533
1.358		0.24293		3.32504
1.36		0.2425		0.960539
1.362		0.24201		1.53405
1.364		0.24157		1.25958
1.366		0.24128		1.94375
1.368		0.24092		1.20533
1.37		0.24051		0.767297
1.372		0.24002		0.767297
1.374		0.23968		1.94375
1.376		0.23925		0.703063
1.378		0.2389		0.631003
1.38		0.23847		0.703063
1.382		0.23807		2.79876
1.384		0.23764		1.10979
1.386		0.2372		1.06795
1.388		0.23689		4.45049
1.39		0.23646		0.522237
1.392		0.23613		0.5387
1.394		0.23571		1.62123
1.396		0.23533		0.652324
1.398		0.23486		0.594298
1.4		0.23449		1.31868
1.402		0.23415		0.641259
1.404		0.23365		1.53405
1.406		0.23309		4.45049
1.408		0.23273		0.586201
1.41		0.23234		1.53405
1.412		0.23198		0.652324
1.414		0.23161		0.850423
1.416		0.23115		1.384
1.418		0.23064		0.4661
1.42		0.2303		1.94375
1.422		0.22989		0.850423
1.424		0.22945		3.32504
1.426		0.22915		6.24525
1.428		0.22881		3.64621
1.43		0.22846		0.767297
1.432		0.22808		3.04436
1.434		0.22767		3.32504
1.436		0.22729		0.586201
1.438		0.22701		0.767297
1.44		0.22655		0.874983
1.442		0.22621		1.02936
1.444		0.22579		0.78619
1.446		0.22549		0.78619
1.448		0.22498		3.64621
1.45		0.22469		0.621017
1.452		0.2244		0.806161
1.454		0.22414		0.874983
1.456		0.22384		2.22659
1.458		0.22352		0.5638
1.46		0.22306		0.960539
1.462		0.22267		9.28961
1.464		0.22235		1.31868
1.466		0.22198		4.01866
1.468		0.2216		0.689299
1.47		0.22129		0.749754
1.472		0.22095		1.94375
1.474		0.22043		0.578374
1.476		0.21994		8.07781
1.478		0.21947		1.94375
1.48		0.21903		2.07707
1.482		0.21853		0.767297
1.484		0.21811		0.5638
1.486		0.21781		0.901433
1.488		0.21743		0.499027
1.49		0.21715		0.850423
1.492		0.21686		1.82446
1.494		0.21653		1.25958
1.496		0.21609		1.82446
1.498		0.21576		2.79876
1.5		0.21542		0.827483
1.502		0.21499		0.993465
1.504		0.21459		0.621017
1.506		0.21423		0.512521
1.508		0.21393		1.94375
1.51		0.21357		1.10979
1.512		0.21308		0.602664
1.514		0.21279		0.767297
1.516		0.21249		1.384
1.518		0.21219		0.571087
1.52		0.21182		0.462861
1.522		0.21162		0.594298
1.524		0.21131		0.544638
1.526		0.21106		0.930041
1.528		0.21058		0.960539
1.53		0.21022		0.749754
1.532		0.20983		1.82446
1.534		0.20952		0.503345
1.536		0.20913		3.32504
1.538		0.20873		0.827483
1.54		0.20837		1.53405
1.542		0.20797		0.571087
1.544		0.20759		1.20533
1.546		0.20725		2.79876
1.548		0.20691		0.78619
1.55		0.20665		0.749754
1.552		0.20627		0.806161
1.554		0.20595		1.94375
1.556		0.20562		0.78619
1.558		0.20535		0.652324
1.56		0.20494		0.993465
1.562		0.20457		0.448827
1.564		0.2042		2.58447
1.566		0.20384		1.82446
1.568		0.20352		1.02936
1.57		0.20315		0.993465
1.572		0.20283		0.850423
1.574		0.20254		0.806161
1.576		0.2022		0.621017
1.578		0.20197		1.82446
1.58		0.2016		0.733291
1.582		0.20137		1.53405
1.584		0.20104		0.476086
1.586		0.20068		0.733291
1.588		0.20039		2.58447
1.59		0.20008		0.641259
1.592		0.19967		1.31868
